'Id: "" Comment: "" Operator: "Lab Manager" Anode: "Cu" Scantype: "Coupled TwoTheta/Theta" TimePerStep: "144" 
3.00009989738464 95.6458333333333
3.02060008235276 88.2847222222222
3.04110026732087 78.2708333333333
3.06160045228899 69.6111111111111
3.0821006372571 61.2638888888889
3.10260082222521 53.4444444444444
3.12310100719333 44.5347222222222
3.14360119216144 36.4583333333333
3.16410137712955 29.2430555555556
3.18460156209767 24.8194444444444
3.20510174706578 23.2430555555556
3.2256019320339 22.4375
3.24610211700201 21.9513888888889
3.26660230197012 20.6666666666667
3.28710248693824 20.5069444444444
3.30760267190635 19.7430555555556
3.32810285687447 19.0277777777778
3.34860304184258 19.0902777777778
3.36910322681069 17.9027777777778
3.38960341177881 17.1388888888889
3.41010359674692 16.7708333333333
3.43060378171504 15.9583333333333
3.45110396668315 15.0833333333333
3.47160415165126 15.25
3.49210433661938 14.6875
3.51260452158749 14.4722222222222
3.5331047065556 13.3125
3.55360489152372 13.4652777777778
3.57410507649183 12.5902777777778
3.59460526145995 12.5833333333333
3.61510544642806 12.2986111111111
3.63560563139617 11.9513888888889
3.65610581636429 12.0416666666667
3.6766060013324 11.5763888888889
3.69710618630052 11.375
3.71760637126863 11.1736111111111
3.73810655623674 10.9652777777778
3.75860674120486 11.0972222222222
3.77910692617297 10.8263888888889
3.79960711114109 10.0555555555556
3.8201072961092 10.1944444444444
3.84060748107731 10.3402777777778
3.86110766604543 10.4583333333333
3.88160785101354 9.84722222222222
3.90210803598166 10.1805555555556
3.92260822094977 10.0763888888889
3.94310840591788 9.20833333333333
3.963608590886 9.63194444444444
3.98410877585411 8.79166666666667
4.00460896082222 9.22916666666667
4.02510914579034 8.59722222222222
4.04560933075845 8.4375
4.06610951572657 8.91666666666667
4.08660970069468 9.17361111111111
4.10710988566279 8.73611111111111
4.12761007063091 8.5
4.14811025559902 8.92361111111111
4.16861044056714 8.20138888888889
4.18911062553525 8.02083333333333
4.20961081050336 8.375
4.23011099547148 7.91666666666667
4.25061118043959 7.84722222222222
4.27111136540771 7.74305555555556
4.29161155037582 7.76388888888889
4.31211173534393 7.75694444444444
4.33261192031205 7.61111111111111
4.35311210528016 7.38888888888889
4.37361229024827 6.96527777777778
4.39411247521639 8.0625
4.4146126601845 7.375
4.43511284515262 7.4375
4.45561303012073 7.48611111111111
4.47611321508884 7.41666666666667
4.49661340005696 6.98611111111111
4.51711358502507 7.47222222222222
4.53761376999319 7.40277777777778
4.5581139549613 7.16666666666667
4.57861413992941 7.43055555555556
4.59911432489753 7.02083333333333
4.61961450986564 6.55555555555556
4.64011469483376 6.75694444444444
4.66061487980187 6.79166666666667
4.68111506476998 7.39583333333333
4.7016152497381 7.125
4.72211543470621 6.91666666666667
4.74261561967433 6.45138888888889
4.76311580464244 6.79861111111111
4.78361598961055 6.72222222222222
4.80411617457867 6.27777777777778
4.82461635954678 6.54861111111111
4.84511654451489 6.22222222222222
4.86561672948301 6.44444444444444
4.88611691445112 6.9375
4.90661709941924 6.22916666666667
4.92711728438735 6.32638888888889
4.94761746935546 5.85416666666667
4.96811765432358 6.51388888888889
4.98861783929169 6.07638888888889
5.00911802425981 6.03472222222222
5.02961820922792 6.29166666666667
5.05011839419603 6.19444444444444
5.07061857916415 5.66666666666667
5.09111876413226 5.65972222222222
5.11161894910038 5.8125
5.13211913406849 5.78472222222222
5.1526193190366 5.45138888888889
5.17311950400472 5.79166666666667
5.19361968897283 6.17361111111111
5.21411987394094 5.91666666666667
5.23462005890906 5.56944444444444
5.25512024387717 5.45833333333333
5.27562042884529 5.61111111111111
5.2961206138134 5.66666666666667
5.31662079878151 5.44444444444444
5.33712098374963 5.67361111111111
5.35762116871774 5.45833333333333
5.37812135368586 5.36111111111111
5.39862153865397 5.23611111111111
5.41912172362208 5.34027777777778
5.4396219085902 5.46527777777778
5.46012209355831 5.47916666666667
5.48062227852643 5.17361111111111
5.50112246349454 5.41666666666667
5.52162264846265 4.84027777777778
5.54212283343077 5.46527777777778
5.56262301839888 5.32638888888889
5.58312320336699 5.27083333333333
5.60362338833511 5.0625
5.62412357330322 5.09027777777778
5.64462375827134 4.86805555555556
5.66512394323945 5.31944444444444
5.68562412820756 4.71527777777778
5.70612431317568 5.17361111111111
5.72662449814379 5.03472222222222
5.74712468311191 4.90972222222222
5.76762486808002 5.33333333333333
5.78812505304813 4.66666666666667
5.80862523801625 5.24305555555556
5.82912542298436 4.84027777777778
5.84962560795248 4.90277777777778
5.87012579292059 4.80555555555556
5.8906259778887 5.08333333333333
5.91112616285682 4.95138888888889
5.93162634782493 4.81944444444444
5.95212653279305 5.09722222222222
5.97262671776116 4.97916666666667
5.99312690272927 4.89583333333333
6.01362708769739 5.11111111111111
6.0341272726655 4.75694444444444
6.05462745763361 4.75
6.07512764260173 4.90972222222222
6.09562782756984 4.98611111111111
6.11612801253796 5.09027777777778
6.13662819750607 4.8125
6.15712838247418 4.89583333333333
6.1776285674423 4.90972222222222
6.19812875241041 4.94444444444444
6.21862893737853 4.77777777777778
6.23912912234664 5.25
6.25962930731475 4.97916666666667
6.28012949228287 4.95833333333333
6.30062967725098 4.92361111111111
6.3211298622191 4.80555555555556
6.34163004718721 4.95833333333333
6.36213023215532 5.22916666666667
6.38263041712344 4.95833333333333
6.40313060209155 5.29861111111111
6.42363078705966 5.31944444444444
6.44413097202778 5.16666666666667
6.46463115699589 5.03472222222222
6.48513134196401 5.10416666666667
6.50563152693212 5.35416666666667
6.52613171190023 5.13194444444444
6.54663189686835 4.88888888888889
6.56713208183646 4.61805555555556
6.58763226680458 4.84027777777778
6.60813245177269 5.27083333333333
6.6286326367408 4.90277777777778
6.64913282170892 4.875
6.66963300667703 5.07638888888889
6.69013319164515 4.71527777777778
6.71063337661326 4.80555555555556
6.73113356158137 4.63194444444444
6.75163374654949 4.73611111111111
6.7721339315176 4.64583333333333
6.79263411648571 4.83333333333333
6.81313430145383 4.52777777777778
6.83363448642194 4.59722222222222
6.85413467139006 4.84027777777778
6.87463485635817 4.85416666666667
6.89513504132628 4.39583333333333
6.9156352262944 4.31944444444444
6.93613541126251 4.26388888888889
6.95663559623063 4.07638888888889
6.97713578119874 4.25694444444444
6.99763596616685 4.30555555555556
7.01813615113497 4.20833333333333
7.03863633610308 3.93055555555556
7.0591365210712 4.29166666666667
7.07963670603931 3.90277777777778
7.10013689100742 3.85416666666667
7.12063707597554 4.10416666666667
7.14113726094365 3.90277777777778
7.16163744591177 3.74305555555556
7.18213763087988 3.58333333333333
7.20263781584799 3.85416666666667
7.22313800081611 3.46527777777778
7.24363818578422 3.53472222222222
7.26413837075233 3.19444444444444
7.28463855572045 3.40972222222222
7.30513874068856 3.65972222222222
7.32563892565668 3.63888888888889
7.34613911062479 3.05555555555556
7.3666392955929 3.20138888888889
7.38713948056102 3.1875
7.40763966552913 3.125
7.42813985049725 3.09027777777778
7.44864003546536 3.375
7.46914022043347 3.15972222222222
7.48964040540159 3.15972222222222
7.5101405903697 3.06944444444444
7.53064077533782 2.95138888888889
7.55114096030593 3.22222222222222
7.57164114527404 2.96527777777778
7.59214133024216 2.9375
7.61264151521027 3.0625
7.63314170017838 2.88194444444444
7.6536418851465 2.86111111111111
7.67414207011461 2.91666666666667
7.69464225508273 2.90972222222222
7.71514244005084 2.79166666666667
7.73564262501895 2.88888888888889
7.75614280998707 2.95138888888889
7.77664299495518 2.77083333333333
7.7971431799233 2.9375
7.81764336489141 2.88194444444444
7.83814354985952 2.68055555555556
7.85864373482764 3.04166666666667
7.87914391979575 2.75
7.89964410476387 2.625
7.92014428973198 2.82638888888889
7.94064447470009 2.88888888888889
7.96114465966821 2.70833333333333
7.98164484463632 2.65972222222222
8.00214502960444 2.84722222222222
8.02264521457255 2.73611111111111
8.04314539954066 2.78472222222222
8.06364558450878 2.72916666666667
8.08414576947689 2.5625
8.104645954445 2.75694444444444
8.12514613941312 2.53472222222222
8.14564632438123 2.49305555555556
8.16614650934935 2.53472222222222
8.18664669431746 2.54166666666667
8.20714687928557 2.35416666666667
8.22764706425369 2.29166666666667
8.2481472492218 2.45833333333333
8.26864743418992 2.46527777777778
8.28914761915803 2.51388888888889
8.30964780412614 2.34722222222222
8.33014798909426 2.36111111111111
8.35064817406237 2.34722222222222
8.37114835903049 2.06944444444444
8.3916485439986 2.20138888888889
8.41214872896671 2.24305555555556
8.43264891393483 2.34027777777778
8.45314909890294 2.26388888888889
8.47364928387105 2.30555555555556
8.49414946883917 2.38888888888889
8.51464965380728 2.27083333333333
8.5351498387754 2.49305555555556
8.55565002374351 2.63194444444444
8.57615020871162 2.33333333333333
8.59665039367974 2.48611111111111
8.61715057864785 2.29861111111111
8.63765076361597 2.35416666666667
8.65815094858408 2.34722222222222
8.67865113355219 2.33333333333333
8.69915131852031 2.49305555555556
8.71965150348842 2.125
8.74015168845654 2.33333333333333
8.76065187342465 2.19444444444444
8.78115205839276 1.9375
8.80165224336088 2.46527777777778
8.82215242832899 2.03472222222222
8.8426526132971 2.10416666666667
8.86315279826522 2.03472222222222
8.88365298323333 2.28472222222222
8.90415316820145 2.24305555555556
8.92465335316956 2.33333333333333
8.94515353813767 2.02777777777778
8.96565372310579 2.05555555555556
8.9861539080739 1.92361111111111
9.00665409304202 2.32638888888889
9.02715427801013 2.11805555555556
9.04765446297824 2.07638888888889
9.06815464794636 2.16666666666667
9.08865483291447 2.30555555555556
9.10915501788259 2.02777777777778
9.1296552028507 2.07638888888889
9.15015538781881 2.11805555555556
9.17065557278693 2.22222222222222
9.19115575775504 2
9.21165594272316 1.82638888888889
9.23215612769127 2.00694444444444
9.25265631265938 2.17361111111111
9.2731564976275 1.95833333333333
9.29365668259561 1.90972222222222
9.31415686756372 1.94444444444444
9.33465705253184 2.05555555555556
9.35515723749995 2.05555555555556
9.37565742246807 2.15277777777778
9.39615760743618 1.93055555555556
9.41665779240429 2.0625
9.43715797737241 2.09722222222222
9.45765816234052 2.11805555555556
9.47815834730864 1.84722222222222
9.49865853227675 2.07638888888889
9.51915871724486 1.88194444444444
9.53965890221298 1.9375
9.56015908718109 1.77083333333333
9.58065927214921 1.92361111111111
9.60115945711732 1.78472222222222
9.62165964208543 1.8125
9.64215982705355 1.81944444444444
9.66266001202166 2.25
9.68316019698977 1.86805555555556
9.70366038195789 1.80555555555556
9.724160566926 1.86805555555556
9.74466075189412 1.76388888888889
9.76516093686223 1.59722222222222
9.78566112183034 1.74305555555556
9.80616130679846 1.65972222222222
9.82666149176657 1.67361111111111
9.84716167673469 1.79861111111111
9.8676618617028 1.89583333333333
9.88816204667091 2.04166666666667
9.90866223163903 1.75694444444444
9.92916241660714 1.85416666666667
9.94966260157526 1.79861111111111
9.97016278654337 1.70138888888889
9.99066297151148 1.72916666666667
10.0111631564796 1.52083333333333
10.0316633414477 1.96527777777778
10.0521635264158 1.46527777777778
10.0726637113839 1.66666666666667
10.0931638963521 1.73611111111111
10.1136640813202 1.56944444444444
10.1341642662883 1.65277777777778
10.1546644512564 1.56944444444444
10.1751646362245 1.76388888888889
10.1956648211926 1.65972222222222
10.2161650061607 1.80555555555556
10.2366651911289 1.90277777777778
10.257165376097 1.61111111111111
10.2776655610651 1.63194444444444
10.2981657460332 1.65277777777778
10.3186659310013 1.71527777777778
10.3391661159694 1.57638888888889
10.3596663009375 1.70833333333333
10.3801664859056 1.50694444444444
10.4006666708738 1.6875
10.4211668558419 1.65277777777778
10.44166704081 1.59027777777778
10.4621672257781 1.63194444444444
10.4826674107462 1.54861111111111
10.5031675957143 1.59027777777778
10.5236677806824 1.59027777777778
10.5441679656506 1.6875
10.5646681506187 1.50694444444444
10.5851683355868 1.5
10.6056685205549 1.54861111111111
10.626168705523 1.61805555555556
10.6466688904911 1.53472222222222
10.6671690754592 1.59722222222222
10.6876692604274 1.36805555555556
10.7081694453955 1.51388888888889
10.7286696303636 1.74305555555556
10.7491698153317 1.50694444444444
10.7696700002998 1.44444444444444
10.7901701852679 1.54861111111111
10.810670370236 1.57638888888889
10.8311705552042 1.50694444444444
10.8516707401723 1.59722222222222
10.8721709251404 1.64583333333333
10.8926711101085 1.5
10.9131712950766 1.44444444444444
10.9336714800447 1.38888888888889
10.9541716650128 1.375
10.974671849981 1.53472222222222
10.9951720349491 1.54166666666667
11.0156722199172 1.31944444444444
11.0361724048853 1.61805555555556
11.0566725898534 1.40277777777778
11.0771727748215 1.51388888888889
11.0976729597896 1.45833333333333
11.1181731447577 1.29166666666667
11.1386733297259 1.4375
11.159173514694 1.44444444444444
11.1796736996621 1.50694444444444
11.2001738846302 1.41666666666667
11.2206740695983 1.31944444444444
11.2411742545664 1.43055555555556
11.2616744395345 1.34722222222222
11.2821746245027 1.34722222222222
11.3026748094708 1.29166666666667
11.3231749944389 1.375
11.343675179407 1.24305555555556
11.3641753643751 1.34722222222222
11.3846755493432 1.375
11.4051757343113 1.375
11.4256759192795 1.36111111111111
11.4461761042476 1.3125
11.4666762892157 1.33333333333333
11.4871764741838 1.41666666666667
11.5076766591519 1.34722222222222
11.52817684412 1.34722222222222
11.5486770290881 1.22222222222222
11.5691772140563 1.30555555555556
11.5896773990244 1.22916666666667
11.6101775839925 1.22222222222222
11.6306777689606 1.20138888888889
11.6511779539287 1.26388888888889
11.6716781388968 1.3125
11.6921783238649 1.29861111111111
11.7126785088331 1.15972222222222
11.7331786938012 1.22916666666667
11.7536788787693 1.28472222222222
11.7741790637374 1.27777777777778
11.7946792487055 1.32638888888889
11.8151794336736 1.20833333333333
11.8356796186417 1.36805555555556
11.8561798036098 1.07638888888889
11.876679988578 1.07638888888889
11.8971801735461 1.3125
11.9176803585142 1.27083333333333
11.9381805434823 1.1875
11.9586807284504 1.31944444444444
11.9791809134185 1.22222222222222
11.9996810983866 1.17361111111111
12.0201812833548 1.27083333333333
12.0406814683229 1.27777777777778
12.061181653291 1.25
12.0816818382591 1.13888888888889
12.1021820232272 1.25
12.1226822081953 1.26388888888889
12.1431823931634 1.28472222222222
12.1636825781316 1.07638888888889
12.1841827630997 1.125
12.2046829480678 1.07638888888889
12.2251831330359 1.20833333333333
12.245683318004 1.17361111111111
12.2661835029721 1.22916666666667
12.2866836879402 1.20138888888889
12.3071838729084 1.1875
12.3276840578765 1.16666666666667
12.3481842428446 1.08333333333333
12.3686844278127 1.06944444444444
12.3891846127808 1.29166666666667
12.4096847977489 1.17361111111111
12.430184982717 1.17361111111111
12.4506851676852 1.04166666666667
12.4711853526533 0.993055555555556
12.4916855376214 1.28472222222222
12.5121857225895 1.07638888888889
12.5326859075576 1.00694444444444
12.5531860925257 1.22222222222222
12.5736862774938 1.11111111111111
12.5941864624619 1.14583333333333
12.6146866474301 1.08333333333333
12.6351868323982 1.08333333333333
12.6556870173663 1.13194444444444
12.6761872023344 0.854166666666667
12.6966873873025 1.13194444444444
12.7171875722706 1.16666666666667
12.7376877572387 1.1875
12.7581879422069 0.965277777777778
12.778688127175 0.993055555555556
12.7991883121431 1
12.8196884971112 1.08333333333333
12.8401886820793 1.16666666666667
12.8606888670474 1.20833333333333
12.8811890520155 1.06944444444444
12.9016892369837 1.06944444444444
12.9221894219518 0.888888888888889
12.9426896069199 0.979166666666667
12.963189791888 1.16666666666667
12.9836899768561 0.993055555555556
13.0041901618242 1.20833333333333
13.0246903467923 1.02777777777778
13.0451905317605 1.09722222222222
13.0656907167286 1.27083333333333
13.0861909016967 1.00694444444444
13.1066910866648 1.1875
13.1271912716329 0.958333333333333
13.147691456601 1.09027777777778
13.1681916415691 1.04166666666667
13.1886918265373 1.0625
13.2091920115054 1.11111111111111
13.2296921964735 1.07638888888889
13.2501923814416 1.15277777777778
13.2706925664097 1.09027777777778
13.2911927513778 1.04861111111111
13.3116929363459 0.909722222222222
13.332193121314 1.00694444444444
13.3526933062822 1.06944444444444
13.3731934912503 0.930555555555556
13.3936936762184 0.986111111111111
13.4141938611865 1.07638888888889
13.4346940461546 1.07638888888889
13.4551942311227 1.0625
13.4756944160908 1.19444444444444
13.496194601059 1.14583333333333
13.5166947860271 1.02777777777778
13.5371949709952 0.923611111111111
13.5576951559633 0.993055555555556
13.5781953409314 0.986111111111111
13.5986955258995 1.13888888888889
13.6191957108676 0.902777777777778
13.6396958958358 0.965277777777778
13.6601960808039 1.00694444444444
13.680696265772 0.979166666666667
13.7011964507401 0.958333333333333
13.7216966357082 1
13.7421968206763 0.930555555555556
13.7626970056444 1.00694444444444
13.7831971906126 0.840277777777778
13.8036973755807 1.00694444444444
13.8241975605488 0.854166666666667
13.8446977455169 0.895833333333333
13.865197930485 1.02777777777778
13.8856981154531 0.881944444444444
13.9061983004212 0.854166666666667
13.9266984853894 1
13.9471986703575 1.0625
13.9676988553256 1
13.9881990402937 0.979166666666667
14.0086992252618 0.888888888888889
14.0291994102299 0.875
14.049699595198 0.916666666666667
14.0701997801661 0.923611111111111
14.0906999651343 0.923611111111111
14.1112001501024 1.04166666666667
14.1317003350705 0.875
14.1522005200386 0.958333333333333
14.1727007050067 0.868055555555556
14.1932008899748 0.916666666666667
14.2137010749429 1.01388888888889
14.2342012599111 0.840277777777778
14.2547014448792 0.972222222222222
14.2752016298473 0.965277777777778
14.2957018148154 0.986111111111111
14.3162019997835 0.895833333333333
14.3367021847516 0.986111111111111
14.3572023697197 0.916666666666667
14.3777025546879 0.868055555555556
14.398202739656 1.04166666666667
14.4187029246241 0.75
14.4392031095922 0.972222222222222
14.4597032945603 0.861111111111111
14.4802034795284 0.826388888888889
14.5007036644965 0.916666666666667
14.5212038494647 0.833333333333333
14.5417040344328 0.743055555555556
14.5622042194009 0.847222222222222
14.582704404369 0.888888888888889
14.6032045893371 0.888888888888889
14.6237047743052 0.861111111111111
14.6442049592733 1.04166666666667
14.6647051442415 0.826388888888889
14.6852053292096 0.888888888888889
14.7057055141777 0.916666666666667
14.7262056991458 0.930555555555556
14.7467058841139 1.02083333333333
14.767206069082 0.895833333333333
14.7877062540501 1.02083333333333
14.8082064390182 1.08333333333333
14.8287066239864 0.979166666666667
14.8492068089545 0.847222222222222
14.8697069939226 0.854166666666667
14.8902071788907 0.791666666666667
14.9107073638588 0.805555555555556
14.9312075488269 1.0625
14.951707733795 0.784722222222222
14.9722079187632 0.951388888888889
14.9927081037313 0.875
15.0132082886994 0.888888888888889
15.0337084736675 0.944444444444444
15.0542086586356 0.854166666666667
15.0747088436037 0.8125
15.0952090285718 0.923611111111111
15.11570921354 0.770833333333333
15.1362093985081 0.833333333333333
15.1567095834762 1
15.1772097684443 0.756944444444444
15.1977099534124 0.791666666666667
15.2182101383805 0.826388888888889
15.2387103233486 0.895833333333333
15.2592105083168 0.951388888888889
15.2797106932849 0.791666666666667
15.300210878253 0.833333333333333
15.3207110632211 0.854166666666667
15.3412112481892 0.756944444444444
15.3617114331573 0.75
15.3822116181254 0.736111111111111
15.4027118030936 0.798611111111111
15.4232119880617 0.8125
15.4437121730298 0.701388888888889
15.4642123579979 0.736111111111111
15.484712542966 0.805555555555556
15.5052127279341 0.916666666666667
15.5257129129022 0.916666666666667
15.5462130978703 0.777777777777778
15.5667132828385 0.868055555555556
15.5872134678066 0.784722222222222
15.6077136527747 0.743055555555556
15.6282138377428 0.75
15.6487140227109 0.652777777777778
15.669214207679 0.638888888888889
15.6897143926471 0.743055555555556
15.7102145776153 0.722222222222222
15.7307147625834 0.694444444444444
15.7512149475515 0.791666666666667
15.7717151325196 0.6875
15.7922153174877 0.798611111111111
15.8127155024558 0.715277777777778
15.8332156874239 0.965277777777778
15.8537158723921 0.75
15.8742160573602 0.770833333333333
15.8947162423283 0.715277777777778
15.9152164272964 0.701388888888889
15.9357166122645 0.715277777777778
15.9562167972326 0.673611111111111
15.9767169822007 0.868055555555556
15.9972171671689 0.833333333333333
16.017717352137 0.777777777777778
16.0382175371051 0.666666666666667
16.0587177220732 0.8125
16.0792179070413 0.840277777777778
16.0997180920094 0.909722222222222
16.1202182769775 0.847222222222222
16.1407184619457 0.805555555555556
16.1612186469138 1.02777777777778
16.1817188318819 1.00694444444444
16.20221901685 0.8125
16.2227192018181 0.861111111111111
16.2432193867862 0.805555555555556
16.2637195717543 0.875
16.2842197567225 1.02777777777778
16.3047199416906 0.743055555555556
16.3252201266587 0.770833333333333
16.3457203116268 0.881944444444444
16.3662204965949 0.715277777777778
16.386720681563 0.645833333333333
16.4072208665311 0.736111111111111
16.4277210514992 0.8125
16.4482212364674 0.847222222222222
16.4687214214355 0.854166666666667
16.4892216064036 0.736111111111111
16.5097217913717 0.659722222222222
16.5302219763398 0.770833333333333
16.5507221613079 0.770833333333333
16.571222346276 0.840277777777778
16.5917225312442 0.694444444444444
16.6122227162123 0.854166666666667
16.6327229011804 0.798611111111111
16.6532230861485 0.743055555555556
16.6737232711166 0.777777777777778
16.6942234560847 0.625
16.7147236410528 0.6875
16.735223826021 0.791666666666667
16.7557240109891 0.729166666666667
16.7762241959572 0.798611111111111
16.7967243809253 0.770833333333333
16.8172245658934 0.708333333333333
16.8377247508615 0.902777777777778
16.8582249358296 0.701388888888889
16.8787251207978 0.708333333333333
16.8992253057659 0.611111111111111
16.919725490734 0.763888888888889
16.9402256757021 0.708333333333333
16.9607258606702 0.763888888888889
16.9812260456383 0.694444444444444
17.0017262306064 0.847222222222222
17.0222264155746 0.666666666666667
17.0427266005427 0.763888888888889
17.0632267855108 0.805555555555556
17.0837269704789 0.645833333333333
17.104227155447 0.680555555555556
17.1247273404151 0.736111111111111
17.1452275253832 0.722222222222222
17.1657277103513 0.8125
17.1862278953195 0.854166666666667
17.2067280802876 0.6875
17.2272282652557 0.791666666666667
17.2477284502238 0.847222222222222
17.2682286351919 0.583333333333333
17.28872882016 0.708333333333333
17.3092290051281 0.833333333333333
17.3297291900963 0.770833333333333
17.3502293750644 0.826388888888889
17.3707295600325 0.729166666666667
17.3912297450006 0.826388888888889
17.4117299299687 0.666666666666667
17.4322301149368 0.708333333333333
17.4527302999049 0.694444444444444
17.4732304848731 0.833333333333333
17.4937306698412 0.8125
17.5142308548093 0.805555555555556
17.5347310397774 0.756944444444444
17.5552312247455 0.645833333333333
17.5757314097136 0.569444444444444
17.5962315946817 0.888888888888889
17.6167317796499 0.763888888888889
17.637231964618 0.75
17.6577321495861 0.6875
17.6782323345542 0.597222222222222
17.6987325195223 0.840277777777778
17.7192327044904 0.777777777777778
17.7397328894585 0.673611111111111
17.7602330744267 0.6875
17.7807332593948 0.895833333333333
17.8012334443629 0.902777777777778
17.821733629331 0.75
17.8422338142991 0.729166666666667
17.8627339992672 0.729166666666667
17.8832341842353 0.777777777777778
17.9037343692034 0.756944444444444
17.9242345541716 0.680555555555556
17.9447347391397 0.618055555555556
17.9652349241078 0.8125
17.9857351090759 0.784722222222222
18.006235294044 0.819444444444444
18.0267354790121 0.805555555555556
18.0472356639802 0.652777777777778
18.0677358489484 0.826388888888889
18.0882360339165 0.854166666666667
18.1087362188846 0.722222222222222
18.1292364038527 0.9375
18.1497365888208 0.638888888888889
18.1702367737889 0.743055555555556
18.190736958757 0.666666666666667
18.2112371437252 0.784722222222222
18.2317373286933 0.743055555555556
18.2522375136614 0.756944444444444
18.2727376986295 0.756944444444444
18.2932378835976 0.743055555555556
18.3137380685657 0.666666666666667
18.3342382535338 0.680555555555556
18.354738438502 0.743055555555556
18.3752386234701 0.625
18.3957388084382 0.854166666666667
18.4162389934063 0.736111111111111
18.4367391783744 0.736111111111111
18.4572393633425 0.680555555555556
18.4777395483106 0.722222222222222
18.4982397332788 0.666666666666667
18.5187399182469 0.597222222222222
18.539240103215 0.854166666666667
18.5597402881831 0.708333333333333
18.5802404731512 0.729166666666667
18.6007406581193 0.722222222222222
18.6212408430874 0.618055555555556
18.6417410280555 0.645833333333333
18.6622412130237 0.756944444444444
18.6827413979918 0.708333333333333
18.7032415829599 0.694444444444444
18.723741767928 0.666666666666667
18.7442419528961 0.680555555555556
18.7647421378642 0.645833333333333
18.7852423228323 0.798611111111111
18.8057425078005 0.527777777777778
18.8262426927686 0.680555555555556
18.8467428777367 0.673611111111111
18.8672430627048 0.722222222222222
18.8877432476729 0.583333333333333
18.908243432641 0.694444444444444
18.9287436176091 0.631944444444444
18.9492438025773 0.604166666666667
18.9697439875454 0.576388888888889
18.9902441725135 0.597222222222222
19.0107443574816 0.701388888888889
19.0312445424497 0.743055555555556
19.0517447274178 0.611111111111111
19.0722449123859 0.590277777777778
19.0927450973541 0.5625
19.1132452823222 0.576388888888889
19.1337454672903 0.736111111111111
19.1542456522584 0.75
19.1747458372265 0.590277777777778
19.1952460221946 0.673611111111111
19.2157462071627 0.694444444444444
19.2362463921309 0.694444444444444
19.256746577099 0.611111111111111
19.2772467620671 0.652777777777778
19.2977469470352 0.659722222222222
19.3182471320033 0.597222222222222
19.3387473169714 0.583333333333333
19.3592475019395 0.645833333333333
19.3797476869076 0.555555555555556
19.4002478718758 0.701388888888889
19.4207480568439 0.708333333333333
19.441248241812 0.673611111111111
19.4617484267801 0.694444444444444
19.4822486117482 0.652777777777778
19.5027487967163 0.701388888888889
19.5232489816844 0.590277777777778
19.5437491666526 0.625
19.5642493516207 0.680555555555556
19.5847495365888 0.743055555555556
19.6052497215569 0.604166666666667
19.625749906525 0.638888888888889
19.6462500914931 0.6875
19.6667502764612 0.673611111111111
19.6872504614294 0.756944444444444
19.7077506463975 0.736111111111111
19.7282508313656 0.638888888888889
19.7487510163337 0.527777777777778
19.7692512013018 0.715277777777778
19.7897513862699 0.638888888888889
19.810251571238 0.618055555555556
19.8307517562062 0.645833333333333
19.8512519411743 0.694444444444444
19.8717521261424 0.638888888888889
19.8922523111105 0.618055555555556
19.9127524960786 0.631944444444444
19.9332526810467 0.694444444444444
19.9537528660148 0.465277777777778
19.974253050983 0.583333333333333
19.9947532359511 0.638888888888889
20.0152534209192 0.638888888888889
20.0357536058873 0.618055555555556
20.0562537908554 0.555555555555556
20.0767539758235 0.729166666666667
20.0972541607916 0.729166666666667
20.1177543457597 0.708333333333333
20.1382545307279 0.597222222222222
20.158754715696 0.611111111111111
20.1792549006641 0.659722222222222
20.1997550856322 0.631944444444444
20.2202552706003 0.694444444444444
20.2407554555684 0.715277777777778
20.2612556405365 0.6875
20.2817558255047 0.847222222222222
20.3022560104728 0.923611111111111
20.3227561954409 0.868055555555556
20.343256380409 0.930555555555556
20.3637565653771 0.756944444444444
20.3842567503452 0.791666666666667
20.4047569353133 0.743055555555556
20.4252571202815 0.6875
20.4457573052496 0.722222222222222
20.4662574902177 0.708333333333333
20.4867576751858 0.604166666666667
20.5072578601539 0.569444444444444
20.527758045122 0.625
20.5482582300901 0.618055555555556
20.5687584150583 0.5625
20.5892586000264 0.784722222222222
20.6097587849945 0.569444444444444
20.6302589699626 0.569444444444444
20.6507591549307 0.659722222222222
20.6712593398988 0.673611111111111
20.6917595248669 0.652777777777778
20.7122597098351 0.729166666666667
20.7327598948032 0.638888888888889
20.7532600797713 0.659722222222222
20.7737602647394 0.6875
20.7942604497075 0.75
20.8147606346756 0.638888888888889
20.8352608196437 0.694444444444444
20.8557610046119 0.618055555555556
20.87626118958 0.541666666666667
20.8967613745481 0.583333333333333
20.9172615595162 0.638888888888889
20.9377617444843 0.611111111111111
20.9582619294524 0.576388888888889
20.9787621144205 0.666666666666667
20.9992622993886 0.666666666666667
21.0197624843568 0.729166666666667
21.0402626693249 0.618055555555556
21.060762854293 0.652777777777778
21.0812630392611 0.506944444444444
21.1017632242292 0.743055555555556
21.1222634091973 0.743055555555556
21.1427635941654 0.625
21.1632637791336 0.729166666666667
21.1837639641017 0.604166666666667
21.2042641490698 0.569444444444444
21.2247643340379 0.680555555555556
21.245264519006 0.666666666666667
21.2657647039741 0.631944444444444
21.2862648889422 0.805555555555556
21.3067650739104 0.548611111111111
21.3272652588785 0.631944444444444
21.3477654438466 0.673611111111111
21.3682656288147 0.576388888888889
21.3887658137828 0.506944444444444
21.4092659987509 0.708333333333333
21.429766183719 0.597222222222222
21.4502663686872 0.680555555555556
21.4707665536553 0.569444444444444
21.4912667386234 0.625
21.5117669235915 0.708333333333333
21.5322671085596 0.493055555555556
21.5527672935277 0.513888888888889
21.5732674784958 0.611111111111111
21.593767663464 0.638888888888889
21.6142678484321 0.6875
21.6347680334002 0.625
21.6552682183683 0.75
21.6757684033364 0.569444444444444
21.6962685883045 0.673611111111111
21.7167687732726 0.618055555555556
21.7372689582407 0.638888888888889
21.7577691432089 0.652777777777778
21.778269328177 0.618055555555556
21.7987695131451 0.777777777777778
21.8192696981132 0.784722222222222
21.8397698830813 0.659722222222222
21.8602700680494 0.597222222222222
21.8807702530175 0.611111111111111
21.9012704379857 0.708333333333333
21.9217706229538 0.597222222222222
21.9422708079219 0.625
21.96277099289 0.611111111111111
21.9832711778581 0.618055555555556
22.0037713628262 0.520833333333333
22.0242715477943 0.604166666666667
22.0447717327625 0.555555555555556
22.0652719177306 0.743055555555556
22.0857721026987 0.625
22.1062722876668 0.659722222222222
22.1267724726349 0.590277777777778
22.147272657603 0.597222222222222
22.1677728425711 0.708333333333333
22.1882730275393 0.666666666666667
22.2087732125074 0.680555555555556
22.2292733974755 0.722222222222222
22.2497735824436 0.590277777777778
22.2702737674117 0.701388888888889
22.2907739523798 0.6875
22.3112741373479 0.715277777777778
22.3317743223161 0.631944444444444
22.3522745072842 0.798611111111111
22.3727746922523 0.708333333333333
22.3932748772204 0.701388888888889
22.4137750621885 0.701388888888889
22.4342752471566 0.694444444444444
22.4547754321247 0.625
22.4752756170928 0.75
22.495775802061 0.715277777777778
22.5162759870291 0.708333333333333
22.5367761719972 0.506944444444444
22.5572763569653 0.680555555555556
22.5777765419334 0.715277777777778
22.5982767269015 0.763888888888889
22.6187769118696 0.694444444444444
22.6392770968378 0.819444444444444
22.6597772818059 0.805555555555556
22.680277466774 0.840277777777778
22.7007776517421 0.861111111111111
22.7212778367102 0.944444444444444
22.7417780216783 0.847222222222222
22.7622782066464 0.840277777777778
22.7827783916146 0.798611111111111
22.8032785765827 0.770833333333333
22.8237787615508 0.805555555555556
22.8442789465189 0.868055555555556
22.864779131487 0.791666666666667
22.8852793164551 0.631944444444444
22.9057795014232 0.736111111111111
22.9262796863914 0.833333333333333
22.9467798713595 0.777777777777778
22.9672800563276 0.6875
22.9877802412957 0.6875
23.0082804262638 0.784722222222222
23.0287806112319 0.673611111111111
23.0492807962 0.638888888888889
23.0697809811682 0.659722222222222
23.0902811661363 0.6875
23.1107813511044 0.680555555555556
23.1312815360725 0.694444444444444
23.1517817210406 0.770833333333333
23.1722819060087 0.666666666666667
23.1927820909768 0.840277777777778
23.2132822759449 0.784722222222222
23.2337824609131 0.666666666666667
23.2542826458812 0.729166666666667
23.2747828308493 0.798611111111111
23.2952830158174 0.805555555555556
23.3157832007855 0.722222222222222
23.3362833857536 0.75
23.3567835707217 0.854166666666667
23.3772837556899 0.722222222222222
23.397783940658 0.756944444444444
23.4182841256261 0.819444444444444
23.4387843105942 0.868055555555556
23.4592844955623 0.701388888888889
23.4797846805304 0.763888888888889
23.5002848654985 0.798611111111111
23.5207850504667 0.6875
23.5412852354348 0.6875
23.5617854204029 0.833333333333333
23.582285605371 0.763888888888889
23.6027857903391 0.743055555555556
23.6232859753072 0.673611111111111
23.6437861602753 0.736111111111111
23.6642863452435 0.722222222222222
23.6847865302116 0.659722222222222
23.7052867151797 0.819444444444444
23.7257869001478 0.701388888888889
23.7462870851159 0.631944444444444
23.766787270084 0.743055555555556
23.7872874550521 0.770833333333333
23.8077876400203 0.743055555555556
23.8282878249884 0.743055555555556
23.8487880099565 0.611111111111111
23.8692881949246 0.840277777777778
23.8897883798927 0.861111111111111
23.9102885648608 0.708333333333333
23.9307887498289 0.666666666666667
23.951288934797 0.763888888888889
23.9717891197652 0.756944444444444
23.9922893047333 0.75
24.0127894897014 0.833333333333333
24.0332896746695 0.756944444444444
24.0537898596376 0.826388888888889
24.0742900446057 0.8125
24.0947902295738 0.916666666666667
24.115290414542 0.784722222222222
24.1357905995101 0.805555555555556
24.1562907844782 0.770833333333333
24.1767909694463 0.819444444444444
24.1972911544144 0.895833333333333
24.2177913393825 1.07638888888889
24.2382915243506 0.965277777777778
24.2587917093188 0.805555555555556
24.2792918942869 0.861111111111111
24.299792079255 0.895833333333333
24.3202922642231 0.819444444444444
24.3407924491912 0.944444444444444
24.3612926341593 0.840277777777778
24.3817928191274 0.722222222222222
24.4022930040956 0.847222222222222
24.4227931890637 0.930555555555556
24.4432933740318 0.8125
24.4637935589999 0.916666666666667
24.484293743968 0.715277777777778
24.5047939289361 0.708333333333333
24.5252941139042 0.916666666666667
24.5457942988724 0.819444444444444
24.5662944838405 0.847222222222222
24.5867946688086 0.770833333333333
24.6072948537767 0.729166666666667
24.6277950387448 0.715277777777778
24.6482952237129 0.847222222222222
24.668795408681 0.805555555555556
24.6892955936491 0.729166666666667
24.7097957786173 0.833333333333333
24.7302959635854 0.826388888888889
24.7507961485535 0.756944444444444
24.7712963335216 0.798611111111111
24.7917965184897 0.680555555555556
24.8122967034578 0.826388888888889
24.8327968884259 0.75
24.8532970733941 0.673611111111111
24.8737972583622 0.770833333333333
24.8942974433303 0.756944444444444
24.9147976282984 0.805555555555556
24.9352978132665 0.756944444444444
24.9557979982346 0.784722222222222
24.9762981832027 0.659722222222222
24.9967983681709 0.854166666666667
25.017298553139 0.763888888888889
25.0377987381071 0.666666666666667
25.0582989230752 0.743055555555556
25.0787991080433 0.798611111111111
25.0992992930114 0.805555555555556
25.1197994779795 0.680555555555556
25.1402996629477 0.715277777777778
25.1607998479158 0.902777777777778
25.1813000328839 0.819444444444444
25.201800217852 0.743055555555556
25.2223004028201 0.736111111111111
25.2428005877882 0.826388888888889
25.2633007727563 0.881944444444444
25.2838009577245 0.618055555555556
25.3043011426926 0.680555555555556
25.3248013276607 0.805555555555556
25.3453015126288 0.715277777777778
25.3658016975969 0.791666666666667
25.386301882565 0.777777777777778
25.4068020675331 0.715277777777778
25.4273022525012 0.791666666666667
25.4478024374694 0.6875
25.4683026224375 0.777777777777778
25.4888028074056 0.736111111111111
25.5093029923737 0.791666666666667
25.5298031773418 0.604166666666667
25.5503033623099 0.701388888888889
25.570803547278 0.791666666666667
25.5913037322462 0.826388888888889
25.6118039172143 0.826388888888889
25.6323041021824 0.736111111111111
25.6528042871505 0.770833333333333
25.6733044721186 0.729166666666667
25.6938046570867 0.791666666666667
25.7143048420548 0.673611111111111
25.734805027023 0.736111111111111
25.7553052119911 0.708333333333333
25.7758053969592 0.881944444444444
25.7963055819273 0.895833333333333
25.8168057668954 0.881944444444444
25.8373059518635 0.833333333333333
25.8578061368316 0.881944444444444
25.8783063217998 0.784722222222222
25.8988065067679 0.722222222222222
25.919306691736 0.694444444444444
25.9398068767041 0.840277777777778
25.9603070616722 0.895833333333333
25.9808072466403 0.722222222222222
26.0013074316084 0.666666666666667
26.0218076165766 0.6875
26.0423078015447 0.736111111111111
26.0628079865128 0.666666666666667
26.0833081714809 0.652777777777778
26.103808356449 0.958333333333333
26.1243085414171 0.652777777777778
26.1448087263852 0.756944444444444
26.1653089113534 0.645833333333333
26.1858090963215 0.756944444444444
26.2063092812896 0.763888888888889
26.2268094662577 0.770833333333333
26.2473096512258 0.715277777777778
26.2678098361939 0.722222222222222
26.288310021162 0.625
26.3088102061301 0.763888888888889
26.3293103910983 0.833333333333333
26.3498105760664 0.819444444444444
26.3703107610345 0.645833333333333
26.3908109460026 0.770833333333333
26.4113111309707 0.715277777777778
26.4318113159388 0.951388888888889
26.4523115009069 0.826388888888889
26.4728116858751 0.701388888888889
26.4933118708432 0.694444444444444
26.5138120558113 0.826388888888889
26.5343122407794 0.895833333333333
26.5548124257475 0.854166666666667
26.5753126107156 0.895833333333333
26.5958127956837 0.965277777777778
26.6163129806519 0.8125
26.63681316562 0.743055555555556
26.6573133505881 0.840277777777778
26.6778135355562 0.791666666666667
26.6983137205243 0.791666666666667
26.7188139054924 0.729166666666667
26.7393140904605 0.680555555555556
26.7598142754287 0.923611111111111
26.7803144603968 0.798611111111111
26.8008146453649 0.854166666666667
26.821314830333 0.8125
26.8418150153011 0.881944444444444
26.8623152002692 0.875
26.8828153852373 1.02083333333333
26.9033155702055 0.756944444444444
26.9238157551736 0.854166666666667
26.9443159401417 0.833333333333333
26.9648161251098 0.701388888888889
26.9853163100779 0.833333333333333
27.005816495046 0.784722222222222
27.0263166800141 0.902777777777778
27.0468168649822 0.8125
27.0673170499504 0.8125
27.0878172349185 0.666666666666667
27.1083174198866 0.805555555555556
27.1288176048547 0.944444444444444
27.1493177898228 0.618055555555556
27.1698179747909 0.881944444444444
27.190318159759 0.875
27.2108183447272 0.75
27.2313185296953 0.701388888888889
27.2518187146634 0.743055555555556
27.2723188996315 0.784722222222222
27.2928190845996 0.756944444444444
27.3133192695677 0.965277777777778
27.3338194545358 0.784722222222222
27.354319639504 0.798611111111111
27.3748198244721 0.840277777777778
27.3953200094402 0.798611111111111
27.4158201944083 0.854166666666667
27.4363203793764 0.791666666666667
27.4568205643445 0.909722222222222
27.4773207493126 0.784722222222222
27.4978209342808 0.645833333333333
27.5183211192489 0.618055555555556
27.538821304217 0.861111111111111
27.5593214891851 0.819444444444444
27.5798216741532 0.736111111111111
27.6003218591213 0.923611111111111
27.6208220440894 0.951388888888889
27.6413222290576 1.04861111111111
27.6618224140257 1.08333333333333
27.6823225989938 1.06944444444444
27.7028227839619 0.986111111111111
27.72332296893 1
27.7438231538981 1
27.7643233388662 0.944444444444444
27.7848235238343 1.00694444444444
27.8053237088025 0.868055555555556
27.8258238937706 0.777777777777778
27.8463240787387 0.888888888888889
27.8668242637068 0.763888888888889
27.8873244486749 0.729166666666667
27.907824633643 0.861111111111111
27.9283248186111 0.6875
27.9488250035793 0.902777777777778
27.9693251885474 0.6875
27.9898253735155 0.833333333333333
28.0103255584836 0.736111111111111
28.0308257434517 0.743055555555556
28.0513259284198 0.833333333333333
28.0718261133879 0.826388888888889
28.0923262983561 0.784722222222222
28.1128264833242 0.8125
28.1333266682923 0.694444444444444
28.1538268532604 0.840277777777778
28.1743270382285 0.694444444444444
28.1948272231966 0.847222222222222
28.2153274081647 0.736111111111111
28.2358275931329 0.847222222222222
28.256327778101 0.694444444444444
28.2768279630691 0.798611111111111
28.2973281480372 0.715277777777778
28.3178283330053 0.756944444444444
28.3383285179734 0.861111111111111
28.3588287029415 0.659722222222222
28.3793288879097 0.729166666666667
28.3998290728778 0.777777777777778
28.4203292578459 0.666666666666667
28.440829442814 0.75
28.4613296277821 0.798611111111111
28.4818298127502 0.763888888888889
28.5023299977183 0.875
28.5228301826864 0.680555555555556
28.5433303676546 0.708333333333333
28.5638305526227 0.715277777777778
28.5843307375908 0.784722222222222
28.6048309225589 0.736111111111111
28.625331107527 0.909722222222222
28.6458312924951 0.8125
28.6663314774632 0.763888888888889
28.6868316624314 0.868055555555556
28.7073318473995 0.881944444444444
28.7278320323676 0.840277777777778
28.7483322173357 0.659722222222222
28.7688324023038 0.895833333333333
28.7893325872719 0.659722222222222
28.80983277224 0.826388888888889
28.8303329572082 0.861111111111111
28.8508331421763 0.770833333333333
28.8713333271444 0.951388888888889
28.8918335121125 0.861111111111111
28.9123336970806 0.743055555555556
28.9328338820487 0.965277777777778
28.9533340670168 0.986111111111111
28.973834251985 0.854166666666667
28.9943344369531 0.75
29.0148346219212 0.770833333333333
29.0353348068893 0.909722222222222
29.0558349918574 0.819444444444444
29.0763351768255 0.916666666666667
29.0968353617936 0.895833333333333
29.1173355467618 0.729166666666667
29.1378357317299 1.04861111111111
29.158335916698 0.902777777777778
29.1788361016661 0.888888888888889
29.1993362866342 0.833333333333333
29.2198364716023 0.840277777777778
29.2403366565704 0.875
29.2608368415385 0.944444444444444
29.2813370265067 0.756944444444444
29.3018372114748 0.979166666666667
29.3223373964429 0.75
29.342837581411 0.75
29.3633377663791 0.840277777777778
29.3838379513472 0.965277777777778
29.4043381363153 0.9375
29.4248383212835 0.944444444444444
29.4453385062516 1.03472222222222
29.4658386912197 1.22222222222222
29.4863388761878 1.33333333333333
29.5068390611559 1.29861111111111
29.527339246124 1.6875
29.5478394310921 2.02777777777778
29.5683396160603 2.13888888888889
29.5888398010284 2.58333333333333
29.6093399859965 2.52777777777778
29.6298401709646 2.98611111111111
29.6503403559327 3.09722222222222
29.6708405409008 3.04166666666667
29.6913407258689 2.8125
29.7118409108371 2.73611111111111
29.7323410958052 2.73611111111111
29.7528412807733 2.41666666666667
29.7733414657414 2.29166666666667
29.7938416507095 2.1875
29.8143418356776 2.21527777777778
29.8348420206457 2.69444444444444
29.8553422056139 2.96527777777778
29.875842390582 3.3125
29.8963425755501 3.54861111111111
29.9168427605182 3.4375
29.9373429454863 4.125
29.9578431304544 3.9375
29.9783433154225 3.75694444444444
29.9988435003906 3.61111111111111
30.0193436853588 3.25
30.0398438703269 2.71527777777778
30.060344055295 2.61111111111111
30.0808442402631 2.02083333333333
30.1013444252312 1.72222222222222
30.1218446101993 1.39583333333333
30.1423447951674 1.36805555555556
30.1628449801356 1.21527777777778
30.1833451651037 1.20138888888889
30.2038453500718 1.17361111111111
30.2243455350399 0.944444444444444
30.244845720008 0.965277777777778
30.2653459049761 0.993055555555556
30.2858460899442 0.993055555555556
30.3063462749124 0.916666666666667
30.3268464598805 1.08333333333333
30.3473466448486 1.09027777777778
30.3678468298167 1.10416666666667
30.3883470147848 0.986111111111111
30.4088471997529 1.02083333333333
30.429347384721 1.14583333333333
30.4498475696892 1.125
30.4703477546573 1.24305555555556
30.4908479396254 1.13194444444444
30.5113481245935 1.16666666666667
30.5318483095616 1.40277777777778
30.5523484945297 1.17361111111111
30.5728486794978 1.65277777777778
30.593348864466 1.5625
30.6138490494341 2.36111111111111
30.6343492344022 2.50694444444444
30.6548494193703 2.82638888888889
30.6753496043384 3.47916666666667
30.6958497893065 4.04861111111111
30.7163499742746 4.3125
30.7368501592427 4.875
30.7573503442109 4.40277777777778
30.777850529179 4.35416666666667
30.7983507141471 3.77083333333333
30.8188508991152 3.63194444444444
30.8393510840833 3.32638888888889
30.8598512690514 2.6875
30.8803514540195 2.52777777777778
30.9008516389877 2.01388888888889
30.9213518239558 1.47916666666667
30.9418520089239 1.61111111111111
30.962352193892 1.29861111111111
30.9828523788601 1.29166666666667
31.0033525638282 1.18055555555556
31.0238527487963 1.17361111111111
31.0443529337645 1.15277777777778
31.0648531187326 0.979166666666667
31.0853533037007 1.09027777777778
31.1058534886688 1.05555555555556
31.1263536736369 1.14583333333333
31.146853858605 1.125
31.1673540435731 1.22916666666667
31.1878542285413 1.23611111111111
31.2083544135094 1.4375
31.2288545984775 1.625
31.2493547834456 2.29166666666667
31.2698549684137 2.30555555555556
31.2903551533818 3.19444444444444
31.3108553383499 4.36111111111111
31.3313555233181 5.15972222222222
31.3518557082862 5.98611111111111
31.3723558932543 7.13194444444444
31.3928560782224 7.03472222222222
31.4133562631905 7.59027777777778
31.4338564481586 7.17361111111111
31.4543566331267 6.59722222222222
31.4748568180949 5.94444444444444
31.495357003063 5.04861111111111
31.5158571880311 4.11111111111111
31.5363573729992 3.79166666666667
31.5568575579673 3.06944444444444
31.5773577429354 2.15972222222222
31.5978579279035 2.19444444444444
31.6183581128716 1.79166666666667
31.6388582978398 1.59722222222222
31.6593584828079 1.36805555555556
31.679858667776 1.64583333333333
31.7003588527441 1.29166666666667
31.7208590377122 1.375
31.7413592226803 1.29166666666667
31.7618594076484 1.1875
31.7823595926166 1.28472222222222
31.8028597775847 1.23611111111111
31.8233599625528 1.04861111111111
31.8438601475209 1.09722222222222
31.864360332489 1.00694444444444
31.8848605174571 0.958333333333333
31.9053607024252 0.881944444444444
31.9258608873934 1.04166666666667
31.9463610723615 0.951388888888889
31.9668612573296 1.06944444444444
31.9873614422977 0.763888888888889
32.0078616272658 0.784722222222222
32.0283618122339 0.868055555555556
32.048861997202 0.784722222222222
32.0693621821702 0.805555555555556
32.0898623671383 0.826388888888889
32.1103625521064 0.763888888888889
32.1308627370745 0.930555555555556
32.1513629220426 0.8125
32.1718631070107 0.888888888888889
32.1923632919788 0.8125
32.212863476947 0.8125
32.2333636619151 0.9375
32.2538638468832 0.9375
32.2743640318513 0.840277777777778
32.2948642168194 0.736111111111111
32.3153644017875 0.861111111111111
32.3358645867556 0.826388888888889
32.3563647717237 0.708333333333333
32.3768649566919 0.958333333333333
32.39736514166 0.881944444444444
32.4178653266281 0.805555555555556
32.4383655115962 0.798611111111111
32.4588656965643 0.833333333333333
32.4793658815324 0.784722222222222
32.4998660665005 0.916666666666667
32.5203662514687 0.743055555555556
32.5408664364368 0.902777777777778
32.5613666214049 0.868055555555556
32.581866806373 0.819444444444444
32.6023669913411 0.902777777777778
32.6228671763092 0.833333333333333
32.6433673612773 1.0625
32.6638675462455 0.770833333333333
32.6843677312136 1.0625
32.7048679161817 0.972222222222222
32.7253681011498 1.20138888888889
32.7458682861179 1.22916666666667
32.766368471086 1.27083333333333
32.7868686560541 1.40972222222222
32.8073688410223 1.42361111111111
32.8278690259904 1.14583333333333
32.8483692109585 1.23611111111111
32.8688693959266 1.16666666666667
32.8893695808947 1.09722222222222
32.9098697658628 1.06944444444444
32.9303699508309 0.951388888888889
32.9508701357991 0.840277777777778
32.9713703207672 0.993055555555556
32.9918705057353 0.958333333333333
33.0123706907034 0.798611111111111
33.0328708756715 0.847222222222222
33.0533710606396 0.8125
33.0738712456077 0.972222222222222
33.0943714305758 0.909722222222222
33.114871615544 0.826388888888889
33.1353718005121 0.763888888888889
33.1558719854802 0.847222222222222
33.1763721704483 0.833333333333333
33.1968723554164 0.902777777777778
33.2173725403845 0.951388888888889
33.2378727253526 0.902777777777778
33.2583729103208 0.916666666666667
33.2788730952889 1.05555555555556
33.299373280257 0.930555555555556
33.3198734652251 0.902777777777778
33.3403736501932 0.861111111111111
33.3608738351613 0.993055555555556
33.3813740201294 1.0625
33.4018742050976 0.909722222222222
33.4223743900657 1.10416666666667
33.4428745750338 1.06944444444444
33.4633747600019 1.15972222222222
33.48387494497 1.25694444444444
33.5043751299381 1.63194444444444
33.5248753149062 1.74305555555556
33.5453754998744 2.08333333333333
33.5658756848425 2.73611111111111
33.5863758698106 3.28472222222222
33.6068760547787 4.13888888888889
33.6273762397468 4.93055555555556
33.6478764247149 5.82638888888889
33.668376609683 6.45138888888889
33.6888767946512 7.07638888888889
33.7093769796193 7.29861111111111
33.7298771645874 7.40277777777778
33.7503773495555 6.80555555555556
33.7708775345236 6.21527777777778
33.7913777194917 5.34027777777778
33.8118779044598 4.52777777777778
33.8323780894279 3.89583333333333
33.8528782743961 3.39583333333333
33.8733784593642 2.55555555555556
33.8938786443323 2.125
33.9143788293004 1.61805555555556
33.9348790142685 1.23611111111111
33.9553791992366 1.25694444444444
33.9758793842047 1.13194444444444
33.9963795691729 1.16666666666667
34.016879754141 1.19444444444444
34.0373799391091 1.0625
34.0578801240772 1.15972222222222
34.0783803090453 1.05555555555556
34.0988804940134 0.916666666666667
34.1193806789815 0.895833333333333
34.1398808639497 0.784722222222222
34.1603810489178 0.784722222222222
34.1808812338859 0.923611111111111
34.201381418854 0.770833333333333
34.2218816038221 0.763888888888889
34.2423817887902 0.8125
34.2628819737583 0.847222222222222
34.2833821587265 0.694444444444444
34.3038823436946 0.895833333333333
34.3243825286627 0.854166666666667
34.3448827136308 0.708333333333333
34.3653828985989 0.819444444444444
34.385883083567 0.819444444444444
34.4063832685351 0.715277777777778
34.4268834535033 0.75
34.4473836384714 0.930555555555556
34.4678838234395 0.895833333333333
34.4883840084076 0.923611111111111
34.5088841933757 0.833333333333333
34.5293843783438 0.680555555555556
34.5498845633119 0.708333333333333
34.57038474828 0.743055555555556
34.5908849332482 0.8125
34.6113851182163 0.701388888888889
34.6318853031844 0.729166666666667
34.6523854881525 0.819444444444444
34.6728856731206 0.875
34.6933858580887 0.854166666666667
34.7138860430568 0.715277777777778
34.734386228025 0.868055555555556
34.7548864129931 0.743055555555556
34.7753865979612 0.8125
34.7958867829293 0.798611111111111
34.8163869678974 0.770833333333333
34.8368871528655 0.840277777777778
34.8573873378336 0.715277777777778
34.8778875228018 0.798611111111111
34.8983877077699 0.888888888888889
34.918887892738 0.798611111111111
34.9393880777061 0.694444444444444
34.9598882626742 0.861111111111111
34.9803884476423 0.756944444444444
35.0008886326104 0.805555555555556
35.0213888175786 0.784722222222222
35.0418890025467 0.763888888888889
35.0623891875148 0.861111111111111
35.0828893724829 0.708333333333333
35.103389557451 0.847222222222222
35.1238897424191 0.840277777777778
35.1443899273872 0.819444444444444
35.1648901123554 0.777777777777778
35.1853902973235 0.736111111111111
35.2058904822916 0.861111111111111
35.2263906672597 0.777777777777778
35.2468908522278 0.854166666666667
35.2673910371959 0.881944444444444
35.287891222164 0.770833333333333
35.3083914071321 0.756944444444444
35.3288915921003 0.868055555555556
35.3493917770684 0.868055555555556
35.3698919620365 0.756944444444444
35.3903921470046 0.701388888888889
35.4108923319727 0.798611111111111
35.4313925169408 0.763888888888889
35.4518927019089 0.694444444444444
35.4723928868771 0.777777777777778
35.4928930718452 0.819444444444444
35.5133932568133 0.819444444444444
35.5338934417814 0.701388888888889
35.5543936267495 0.777777777777778
35.5748938117176 0.784722222222222
35.5953939966857 0.6875
35.6158941816539 1.0625
35.636394366622 1
35.6568945515901 1.18055555555556
35.6773947365582 1.04861111111111
35.6978949215263 1.08333333333333
35.7183951064944 1.375
35.7388952914625 1.38194444444444
35.7593954764307 1.40972222222222
35.7798956613988 1.20833333333333
35.8003958463669 1.35416666666667
35.820896031335 1.29861111111111
35.8413962163031 1.22916666666667
35.8618964012712 1.14583333333333
35.8823965862393 1.09027777777778
35.9028967712075 1.20833333333333
35.9233969561756 1.35416666666667
35.9438971411437 1.06944444444444
35.9643973261118 1.20833333333333
35.9848975110799 1.26388888888889
36.005397696048 1.0625
36.0258978810161 1.21527777777778
36.0463980659842 1.11111111111111
36.0668982509524 1.02083333333333
36.0873984359205 0.979166666666667
36.1078986208886 1.13888888888889
36.1283988058567 0.965277777777778
36.1488989908248 1.02083333333333
36.1693991757929 0.972222222222222
36.189899360761 1.09722222222222
36.2103995457292 0.930555555555556
36.2308997306973 0.763888888888889
36.2513999156654 0.840277777777778
36.2719001006335 0.861111111111111
36.2924002856016 0.958333333333333
36.3129004705697 0.881944444444444
36.3334006555378 0.875
36.353900840506 0.9375
36.3744010254741 0.840277777777778
36.3949012104422 0.729166666666667
36.4154013954103 0.694444444444444
36.4359015803784 0.833333333333333
36.4564017653465 0.868055555555556
36.4769019503146 0.708333333333333
36.4974021352828 0.694444444444444
36.5179023202509 1.01388888888889
36.538402505219 1.05555555555556
36.5589026901871 0.8125
36.5794028751552 0.798611111111111
36.5999030601233 0.979166666666667
36.6204032450914 0.854166666666667
36.6409034300596 1.06944444444444
36.6614036150277 0.993055555555556
36.6819037999958 0.784722222222222
36.7024039849639 0.868055555555556
36.722904169932 0.895833333333333
36.7434043549001 0.965277777777778
36.7639045398682 0.958333333333333
36.7844047248363 1.34722222222222
36.8049049098045 1.5625
36.8254050947726 1.34722222222222
36.8459052797407 1.54861111111111
36.8664054647088 1.74305555555556
36.8869056496769 1.72222222222222
36.907405834645 1.72222222222222
36.9279060196131 1.6875
36.9484062045813 1.70138888888889
36.9689063895494 1.75694444444444
36.9894065745175 1.77083333333333
37.0099067594856 1.67361111111111
37.0304069444537 1.6875
37.0509071294218 1.47222222222222
37.0714073143899 1.54166666666667
37.0919074993581 1.4375
37.1124076843262 1.34027777777778
37.1329078692943 1.28472222222222
37.1534080542624 1.11805555555556
37.1739082392305 1.0625
37.1944084241986 1.07638888888889
37.2149086091667 1.21527777777778
37.2354087941349 0.965277777777778
37.255908979103 0.902777777777778
37.2764091640711 0.9375
37.2969093490392 0.965277777777778
37.3174095340073 0.909722222222222
37.3379097189754 0.756944444444444
37.3584099039435 1.09027777777778
37.3789100889117 0.902777777777778
37.3994102738798 0.9375
37.4199104588479 1.1875
37.440410643816 1.15972222222222
37.4609108287841 1.20833333333333
37.4814110137522 1.19444444444444
37.5019111987203 1.23611111111111
37.5224113836885 1.19444444444444
37.5429115686566 1.45138888888889
37.5634117536247 1.36805555555556
37.5839119385928 1.38194444444444
37.6044121235609 1.55555555555556
37.624912308529 1.56944444444444
37.6454124934971 1.34722222222222
37.6659126784652 1.29166666666667
37.6864128634334 1.41666666666667
37.7069130484015 1.22222222222222
37.7274132333696 1.15972222222222
37.7479134183377 1.0625
37.7684136033058 1.05555555555556
37.7889137882739 1.02083333333333
37.809413973242 0.895833333333333
37.8299141582102 0.875
37.8504143431783 0.972222222222222
37.8709145281464 0.881944444444444
37.8914147131145 0.902777777777778
37.9119148980826 0.958333333333333
37.9324150830507 0.833333333333333
37.9529152680188 0.833333333333333
37.973415452987 0.861111111111111
37.9939156379551 0.805555555555556
38.0144158229232 0.777777777777778
38.0349160078913 0.902777777777778
38.0554161928594 0.8125
38.0759163778275 1
38.0964165627956 0.833333333333333
38.1169167477638 0.791666666666667
38.1374169327319 0.791666666666667
38.1579171177 0.798611111111111
38.1784173026681 0.875
38.1989174876362 0.875
38.2194176726043 0.833333333333333
38.2399178575724 0.722222222222222
38.2604180425406 0.840277777777778
38.2809182275087 0.756944444444444
38.3014184124768 0.736111111111111
38.3219185974449 0.9375
38.342418782413 0.9375
38.3629189673811 0.756944444444444
38.3834191523492 0.888888888888889
38.4039193373173 0.743055555555556
38.4244195222855 0.868055555555556
38.4449197072536 0.875
38.4654198922217 0.868055555555556
38.4859200771898 1
38.5064202621579 0.6875
38.526920447126 0.944444444444444
38.5474206320941 0.888888888888889
38.5679208170623 1.04861111111111
38.5884210020304 0.944444444444444
38.6089211869985 0.923611111111111
38.6294213719666 0.854166666666667
38.6499215569347 1.04166666666667
38.6704217419028 0.923611111111111
38.6909219268709 0.868055555555556
38.7114221118391 0.854166666666667
38.7319222968072 0.944444444444444
38.7524224817753 1.1875
38.7729226667434 0.923611111111111
38.7934228517115 0.923611111111111
38.8139230366796 1.01388888888889
38.8344232216477 0.979166666666667
38.8549234066159 0.881944444444444
38.875423591584 0.763888888888889
38.8959237765521 0.833333333333333
38.9164239615202 0.895833333333333
38.9369241464883 0.8125
38.9574243314564 0.909722222222222
38.9779245164245 1
38.9984247013927 0.798611111111111
39.0189248863608 0.895833333333333
39.0394250713289 0.951388888888889
39.059925256297 1.03472222222222
39.0804254412651 1.08333333333333
39.1009256262332 1.125
39.1214258112013 1.375
39.1419259961694 1.43055555555556
39.1624261811376 1.36111111111111
39.1829263661057 1.63194444444444
39.2034265510738 1.54861111111111
39.2239267360419 1.50694444444444
39.24442692101 1.625
39.2649271059781 1.60416666666667
39.2854272909462 1.73611111111111
39.3059274759144 1.73611111111111
39.3264276608825 1.67361111111111
39.3469278458506 1.54861111111111
39.3674280308187 1.83333333333333
39.3879282157868 1.79861111111111
39.4084284007549 1.58333333333333
39.428928585723 1.38194444444444
39.4494287706912 1.38194444444444
39.4699289556593 0.979166666666667
39.4904291406274 1.3125
39.5109293255955 1.09027777777778
39.5314295105636 1.09722222222222
39.5519296955317 1.10416666666667
39.5724298804998 0.9375
39.592930065468 1.08333333333333
39.6134302504361 0.895833333333333
39.6339304354042 1.03472222222222
39.6544306203723 0.895833333333333
39.6749308053404 0.951388888888889
39.6954309903085 0.756944444444444
39.7159311752766 0.847222222222222
39.7364313602448 0.861111111111111
39.7569315452129 0.888888888888889
39.777431730181 1.04861111111111
39.7979319151491 0.777777777777778
39.8184321001172 1.09027777777778
39.8389322850853 0.756944444444444
39.8594324700534 0.902777777777778
39.8799326550215 1.10416666666667
39.9004328399897 0.826388888888889
39.9209330249578 0.819444444444444
39.9414332099259 0.819444444444444
39.961933394894 0.826388888888889
39.9824335798621 1
40.0029337648302 0.916666666666667
40.0234339497983 0.694444444444444
40.0439341347665 1.11111111111111
40.0644343197346 0.916666666666667
40.0849345047027 0.944444444444444
40.1054346896708 0.9375
40.1259348746389 0.986111111111111
40.146435059607 0.763888888888889
40.1669352445751 0.888888888888889
40.1874354295433 0.944444444444444
40.2079356145114 0.881944444444444
40.2284357994795 0.923611111111111
40.2489359844476 0.895833333333333
40.2694361694157 0.8125
40.2899363543838 0.951388888888889
40.3104365393519 0.805555555555556
40.3309367243201 0.916666666666667
40.3514369092882 0.784722222222222
40.3719370942563 0.784722222222222
40.3924372792244 0.958333333333333
40.4129374641925 0.958333333333333
40.4334376491606 0.833333333333333
40.4539378341287 0.861111111111111
40.4744380190969 0.805555555555556
40.494938204065 0.895833333333333
40.5154383890331 0.861111111111111
40.5359385740012 0.708333333333333
40.5564387589693 0.868055555555556
40.5769389439374 0.895833333333333
40.5974391289055 0.965277777777778
40.6179393138736 1
40.6384394988418 0.881944444444444
40.6589396838099 0.909722222222222
40.679439868778 0.930555555555556
40.6999400537461 0.875
40.7204402387142 0.965277777777778
40.7409404236823 0.861111111111111
40.7614406086504 0.75
40.7819407936186 0.958333333333333
40.8024409785867 0.729166666666667
40.8229411635548 1.02777777777778
40.8434413485229 0.861111111111111
40.863941533491 0.9375
40.8844417184591 0.909722222222222
40.9049419034272 0.756944444444444
40.9254420883954 0.847222222222222
40.9459422733635 0.930555555555556
40.9664424583316 1.05555555555556
40.9869426432997 0.951388888888889
41.0074428282678 0.979166666666667
41.0279430132359 0.833333333333333
41.048443198204 0.993055555555556
41.0689433831722 1.08333333333333
41.0894435681403 0.965277777777778
41.1099437531084 0.972222222222222
41.1304439380765 0.930555555555556
41.1509441230446 0.902777777777778
41.1714443080127 0.9375
41.1919444929808 0.972222222222222
41.212444677949 0.923611111111111
41.2329448629171 0.708333333333333
41.2534450478852 0.979166666666667
41.2739452328533 1.02083333333333
41.2944454178214 0.930555555555556
41.3149456027895 0.833333333333333
41.3354457877576 1.04861111111111
41.3559459727257 1.10416666666667
41.3764461576939 0.881944444444444
41.396946342662 1.04166666666667
41.4174465276301 1.11111111111111
41.4379467125982 1.20138888888889
41.4584468975663 1.21527777777778
41.4789470825344 1.00694444444444
41.4994472675025 1.41666666666667
41.5199474524707 1.34027777777778
41.5404476374388 1.23611111111111
41.5609478224069 1.20138888888889
41.581448007375 1.06944444444444
41.6019481923431 1.28472222222222
41.6224483773112 1.38888888888889
41.6429485622793 1.35416666666667
41.6634487472475 1.11111111111111
41.6839489322156 1.13194444444444
41.7044491171837 1.25694444444444
41.7249493021518 0.965277777777778
41.7454494871199 1.00694444444444
41.765949672088 1.0625
41.7864498570561 1.11111111111111
41.8069500420243 1.04166666666667
41.8274502269924 0.986111111111111
41.8479504119605 1.15972222222222
41.8684505969286 1.01388888888889
41.8889507818967 0.993055555555556
41.9094509668648 0.993055555555556
41.9299511518329 1.08333333333333
41.9504513368011 0.965277777777778
41.9709515217692 0.895833333333333
41.9914517067373 1.01388888888889
42.0119518917054 0.861111111111111
42.0324520766735 1.13194444444444
42.0529522616416 1.05555555555556
42.0734524466097 1.00694444444444
42.0939526315778 0.972222222222222
42.114452816546 1.01388888888889
42.1349530015141 0.916666666666667
42.1554531864822 1.04166666666667
42.1759533714503 0.902777777777778
42.1964535564184 1.02777777777778
42.2169537413865 1.08333333333333
42.2374539263546 0.916666666666667
42.2579541113228 1.10416666666667
42.2784542962909 0.847222222222222
42.298954481259 1.09722222222222
42.3194546662271 0.972222222222222
42.3399548511952 1.04861111111111
42.3604550361633 0.951388888888889
42.3809552211314 0.965277777777778
42.4014554060996 1.02777777777778
42.4219555910677 0.951388888888889
42.4424557760358 1.16666666666667
42.4629559610039 0.972222222222222
42.483456145972 1.0625
42.5039563309401 0.972222222222222
42.5244565159082 1.02083333333333
42.5449567008764 0.986111111111111
42.5654568858445 1.08333333333333
42.5859570708126 1.02083333333333
42.6064572557807 1.09027777777778
42.6269574407488 1.02777777777778
42.6474576257169 1.04166666666667
42.667957810685 1.04861111111111
42.6884579956532 1.05555555555556
42.7089581806213 1.20833333333333
42.7294583655894 1.1875
42.7499585505575 1.24305555555556
42.7704587355256 1.24305555555556
42.7909589204937 1.09027777777778
42.8114591054618 1.24305555555556
42.83195929043 1.26388888888889
42.8524594753981 1.41666666666667
42.8729596603662 1.45833333333333
42.8934598453343 1.84027777777778
42.9139600303024 2
42.9344602152705 2.04166666666667
42.9549604002386 2.06944444444444
42.9754605852067 2.3125
42.9959607701749 2.69444444444444
43.016460955143 2.90277777777778
43.0369611401111 2.80555555555556
43.0574613250792 3.07638888888889
43.0779615100473 3.34027777777778
43.0984616950154 3.97916666666667
43.1189618799835 5.09722222222222
43.1394620649517 5.85416666666667
43.1599622499198 7.33333333333333
43.1804624348879 8.27777777777778
43.200962619856 9.70138888888889
43.2214628048241 9.91666666666667
43.2419629897922 10.0277777777778
43.2624631747603 9.34027777777778
43.2829633597285 8.57638888888889
43.3034635446966 7.47916666666667
43.3239637296647 7.18055555555556
43.3444639146328 6.28472222222222
43.3649640996009 5.125
43.385464284569 4.60416666666667
43.4059644695371 3.99305555555556
43.4264646545053 3.47916666666667
43.4469648394734 2.75694444444444
43.4674650244415 2.40972222222222
43.4879652094096 2.05555555555556
43.5084653943777 1.75
43.5289655793458 1.75
43.5494657643139 1.55555555555556
43.5699659492821 1.40277777777778
43.5904661342502 1.45833333333333
43.6109663192183 1.23611111111111
43.6314665041864 1.33333333333333
43.6519666891545 1.125
43.6724668741226 1.22222222222222
43.6929670590907 0.965277777777778
43.7134672440588 1.09027777777778
43.733967429027 1.17361111111111
43.7544676139951 1.09027777777778
43.7749677989632 1.0625
43.7954679839313 0.993055555555556
43.8159681688994 1.04166666666667
43.8364683538675 1.11805555555556
43.8569685388356 1.01388888888889
43.8774687238038 0.902777777777778
43.8979689087719 1.04166666666667
43.91846909374 1.14583333333333
43.9389692787081 1.09722222222222
43.9594694636762 1.10416666666667
43.9799696486443 0.965277777777778
44.0004698336124 1.13194444444444
44.0209700185806 0.986111111111111
44.0414702035487 1.19444444444444
44.0619703885168 1.15277777777778
44.0824705734849 1.19444444444444
44.102970758453 1.375
44.1234709434211 1.22222222222222
44.1439711283892 1.34027777777778
44.1644713133574 1.20138888888889
44.1849714983255 1.33333333333333
44.2054716832936 1.4375
44.2259718682617 1.48611111111111
44.2464720532298 1.54861111111111
44.2669722381979 1.45138888888889
44.287472423166 1.51388888888889
44.3079726081342 1.54166666666667
44.3284727931023 1.51388888888889
44.3489729780704 1.29861111111111
44.3694731630385 1.36805555555556
44.3899733480066 1.36805555555556
44.4104735329747 1.3125
44.4309737179428 1.29166666666667
44.4514739029109 1.20833333333333
44.4719740878791 1.20833333333333
44.4924742728472 1.0625
44.5129744578153 1.03472222222222
44.5334746427834 0.958333333333333
44.5539748277515 0.9375
44.5744750127196 0.958333333333333
44.5949751976877 1.09722222222222
44.6154753826559 1.125
44.635975567624 1.08333333333333
44.6564757525921 0.930555555555556
44.6769759375602 0.944444444444444
44.6974761225283 1.02777777777778
44.7179763074964 0.9375
44.7384764924645 0.930555555555556
44.7589766774327 0.8125
44.7794768624008 0.944444444444444
44.7999770473689 1.08333333333333
44.820477232337 1.02777777777778
44.8409774173051 0.902777777777778
44.8614776022732 0.944444444444444
44.8819777872413 0.958333333333333
44.9024779722095 0.847222222222222
44.9229781571776 1.04861111111111
44.9434783421457 0.861111111111111
44.9639785271138 0.951388888888889
44.9844787120819 1.01388888888889
45.00497889705 1.00694444444444
45.0254790820181 0.881944444444444
45.0459792669863 1
45.0664794519544 0.951388888888889
45.0869796369225 1.04861111111111
45.1074798218906 0.916666666666667
45.1279800068587 0.951388888888889
45.1484801918268 0.951388888888889
45.1689803767949 1.02083333333333
45.189480561763 1.02083333333333
45.2099807467312 1.01388888888889
45.2304809316993 0.895833333333333
45.2509811166674 0.993055555555556
45.2714813016355 1.01388888888889
45.2919814866036 1.02083333333333
45.3124816715717 0.861111111111111
45.3329818565398 1.09722222222222
45.353482041508 0.895833333333333
45.3739822264761 0.881944444444444
45.3944824114442 1.125
45.4149825964123 0.840277777777778
45.4354827813804 0.902777777777778
45.4559829663485 0.916666666666667
45.4764831513166 0.958333333333333
45.4969833362848 1.06944444444444
45.5174835212529 1.02083333333333
45.537983706221 0.951388888888889
45.5584838911891 0.972222222222222
45.5789840761572 0.826388888888889
45.5994842611253 0.993055555555556
45.6199844460934 0.763888888888889
45.6404846310616 0.854166666666667
45.6609848160297 0.881944444444444
45.6814850009978 0.875
45.7019851859659 0.854166666666667
45.722485370934 0.958333333333333
45.7429855559021 1.22222222222222
45.7634857408702 0.993055555555556
45.7839859258384 1.14583333333333
45.8044861108065 1.11805555555556
45.8249862957746 1.06944444444444
45.8454864807427 0.965277777777778
45.8659866657108 1.02083333333333
45.8864868506789 0.951388888888889
45.906987035647 1.09722222222222
45.9274872206151 1.09027777777778
45.9479874055833 1.20138888888889
45.9684875905514 0.923611111111111
45.9889877755195 0.944444444444444
46.0094879604876 0.902777777777778
46.0299881454557 1.05555555555556
46.0504883304238 0.847222222222222
46.0709885153919 1.09722222222222
46.0914887003601 0.9375
46.1119888853282 0.847222222222222
46.1324890702963 1.13194444444444
46.1529892552644 1.28472222222222
46.1734894402325 0.833333333333333
46.1939896252006 1.15972222222222
46.2144898101687 1.13888888888889
46.2349899951369 1.07638888888889
46.255490180105 0.993055555555556
46.2759903650731 0.965277777777778
46.2964905500412 1.23611111111111
46.3169907350093 1.01388888888889
46.3374909199774 1.13888888888889
46.3579911049455 1.01388888888889
46.3784912899137 1.04861111111111
46.3989914748818 1.02083333333333
46.4194916598499 1.15972222222222
46.439991844818 1.15972222222222
46.4604920297861 1.04861111111111
46.4809922147542 1.13194444444444
46.5014923997223 1.25694444444444
46.5219925846905 1.17361111111111
46.5424927696586 1.17361111111111
46.5629929546267 1.11111111111111
46.5834931395948 1.35416666666667
46.6039933245629 1.45833333333333
46.624493509531 1.60416666666667
46.6449936944991 1.71527777777778
46.6654938794672 1.63888888888889
46.6859940644354 1.75
46.7064942494035 1.77777777777778
46.7269944343716 1.63888888888889
46.7474946193397 1.94444444444444
46.7679948043078 1.65277777777778
46.7884949892759 1.54166666666667
46.808995174244 1.42361111111111
46.8294953592122 1.44444444444444
46.8499955441803 1.46527777777778
46.8704957291484 1.18055555555556
46.8909959141165 1.10416666666667
46.9114960990846 1.22222222222222
46.9319962840527 1.0625
46.9524964690208 1.02083333333333
46.972996653989 1.06944444444444
46.9934968389571 0.951388888888889
47.0139970239252 1.08333333333333
47.0344972088933 0.923611111111111
47.0549973938614 0.895833333333333
47.0754975788295 1.02083333333333
47.0959977637976 1.20138888888889
47.1164979487658 1.14583333333333
47.1369981337339 1.13888888888889
47.157498318702 1.41666666666667
47.1779985036701 1.49305555555556
47.1984986886382 1.44444444444444
47.2189988736063 1.42361111111111
47.2394990585744 1.59722222222222
47.2599992435426 1.45833333333333
47.2804994285107 1.45138888888889
47.3009996134788 1.42361111111111
47.3214997984469 1.32638888888889
47.341999983415 1.31944444444444
47.3625001683831 1.29166666666667
47.3830003533512 1.34027777777778
47.4035005383193 1.125
47.4240007232875 1.17361111111111
47.4445009082556 1.08333333333333
47.4650010932237 1.10416666666667
47.4855012781918 1.15277777777778
47.5060014631599 1.25694444444444
47.526501648128 1.17361111111111
47.5470018330961 1.04861111111111
47.5675020180643 1.11111111111111
47.5880022030324 0.972222222222222
47.6085023880005 0.979166666666667
47.6290025729686 0.951388888888889
47.6495027579367 0.993055555555556
47.6700029429048 0.958333333333333
47.6905031278729 0.958333333333333
47.7110033128411 1.07638888888889
47.7315034978092 0.798611111111111
47.7520036827773 0.923611111111111
47.7725038677454 0.944444444444444
47.7930040527135 1.04166666666667
47.8135042376816 0.951388888888889
47.8340044226497 0.888888888888889
47.8545046076179 0.861111111111111
47.875004792586 0.965277777777778
47.8955049775541 0.986111111111111
47.9160051625222 0.986111111111111
47.9365053474903 1.09027777777778
47.9570055324584 1.06944444444444
47.9775057174265 1.125
47.9980059023947 0.972222222222222
48.0185060873628 0.944444444444444
48.0390062723309 1.02083333333333
48.059506457299 1.03472222222222
48.0800066422671 1.02083333333333
48.1005068272352 0.944444444444444
48.1210070122033 1.04861111111111
48.1415071971715 0.979166666666667
48.1620073821396 1.10416666666667
48.1825075671077 1.17361111111111
48.2030077520758 1.13888888888889
48.2235079370439 1.13888888888889
48.244008122012 1.22222222222222
48.2645083069801 1.18055555555556
48.2850084919482 1.375
48.3055086769164 1.46527777777778
48.3260088618845 1.3125
48.3465090468526 1.65277777777778
48.3670092318207 1.83333333333333
48.3875094167888 1.625
48.4080096017569 1.73611111111111
48.428509786725 1.82638888888889
48.4490099716932 1.57638888888889
48.4695101566613 1.65277777777778
48.4900103416294 1.65277777777778
48.5105105265975 1.61805555555556
48.5310107115656 1.59722222222222
48.5515108965337 1.51388888888889
48.5720110815018 1.25694444444444
48.59251126647 1.30555555555556
48.6130114514381 1.24305555555556
48.6335116364062 1.1875
48.6540118213743 1.00694444444444
48.6745120063424 1.11111111111111
48.6950121913105 1.125
48.7155123762786 1.11111111111111
48.7360125612468 1.07638888888889
48.7565127462149 1.10416666666667
48.777012931183 0.9375
48.7975131161511 1.06944444444444
48.8180133011192 1.15277777777778
48.8385134860873 0.951388888888889
48.8590136710554 0.9375
48.8795138560236 1.08333333333333
48.9000140409917 0.888888888888889
48.9205142259598 0.888888888888889
48.9410144109279 0.791666666666667
48.961514595896 0.951388888888889
48.9820147808641 0.923611111111111
49.0025149658322 0.993055555555556
49.0230151508003 1.09027777777778
49.0435153357685 0.958333333333333
49.0640155207366 1.02777777777778
49.0845157057047 1.04861111111111
49.1050158906728 0.916666666666667
49.1255160756409 0.986111111111111
49.146016260609 0.909722222222222
49.1665164455771 1.02777777777778
49.1870166305453 1.00694444444444
49.2075168155134 1.08333333333333
49.2280170004815 0.805555555555556
49.2485171854496 1.03472222222222
49.2690173704177 1.00694444444444
49.2895175553858 0.979166666666667
49.3100177403539 0.958333333333333
49.3305179253221 0.958333333333333
49.3510181102902 1.09722222222222
49.3715182952583 1.02777777777778
49.3920184802264 1.05555555555556
49.4125186651945 0.902777777777778
49.4330188501626 1.02083333333333
49.4535190351307 0.916666666666667
49.4740192200989 0.833333333333333
49.494519405067 0.951388888888889
49.5150195900351 0.9375
49.5355197750032 0.930555555555556
49.5560199599713 1.01388888888889
49.5765201449394 0.979166666666667
49.5970203299075 1.08333333333333
49.6175205148757 1.07638888888889
49.6380206998438 1.125
49.6585208848119 1.25
49.67902106978 1.16666666666667
49.6995212547481 0.993055555555556
49.7200214397162 1.09722222222222
49.7405216246843 1.19444444444444
49.7610218096524 1.14583333333333
49.7815219946206 1.20833333333333
49.8020221795887 1.09722222222222
49.8225223645568 1.09722222222222
49.8430225495249 1.30555555555556
49.863522734493 1.30555555555556
49.8840229194611 1.34027777777778
49.9045231044292 1.47916666666667
49.9250232893974 1.45833333333333
49.9455234743655 1.625
49.9660236593336 1.57638888888889
49.9865238443017 1.76388888888889
50.0070240292698 1.92361111111111
50.0275242142379 1.92361111111111
50.048024399206 2.07638888888889
50.0685245841742 2.3125
50.0890247691423 2.48611111111111
50.1095249541104 2.36805555555556
50.1300251390785 2.82638888888889
50.1505253240466 2.88888888888889
50.1710255090147 2.97916666666667
50.1915256939828 3.84722222222222
50.212025878951 3.85416666666667
50.2325260639191 4.00694444444444
50.2530262488872 4.50694444444444
50.2735264338553 4.98611111111111
50.2940266188234 5.60416666666667
50.3145268037915 5.45138888888889
50.3350269887596 5.47916666666667
50.3555271737278 5.54166666666667
50.3760273586959 5.04166666666667
50.396527543664 5.00694444444444
50.4170277286321 5.04166666666667
50.4375279136002 4.77083333333333
50.4580280985683 4.09027777777778
50.4785282835364 3.89583333333333
50.4990284685045 3.59722222222222
50.5195286534727 3.33333333333333
50.5400288384408 3.10416666666667
50.5605290234089 2.88888888888889
50.581029208377 2.4375
50.6015293933451 2.48611111111111
50.6220295783132 2.10416666666667
50.6425297632813 1.98611111111111
50.6630299482495 1.86805555555556
50.6835301332176 1.59722222222222
50.7040303181857 1.4375
50.7245305031538 1.29166666666667
50.7450306881219 1.32638888888889
50.76553087309 1.40277777777778
50.7860310580581 1.27083333333333
50.8065312430263 1.22916666666667
50.8270314279944 1.13888888888889
50.8475316129625 1.09722222222222
50.8680317979306 1.125
50.8885319828987 1.15972222222222
50.9090321678668 1.15277777777778
50.9295323528349 0.923611111111111
50.9500325378031 1.02777777777778
50.9705327227712 0.958333333333333
50.9910329077393 1.00694444444444
51.0115330927074 1.05555555555556
51.0320332776755 1.10416666666667
51.0525334626436 0.875
51.0730336476117 1.02083333333333
51.0935338325799 0.958333333333333
51.114034017548 0.986111111111111
51.1345342025161 0.923611111111111
51.1550343874842 1.20833333333333
51.1755345724523 0.923611111111111
51.1960347574204 1.09722222222222
51.2165349423885 0.833333333333333
51.2370351273566 1.00694444444444
51.2575353123248 0.993055555555556
51.2780354972929 1.01388888888889
51.298535682261 0.916666666666667
51.3190358672291 0.875
51.3395360521972 0.916666666666667
51.3600362371653 0.993055555555556
51.3805364221334 0.986111111111111
51.4010366071016 0.909722222222222
51.4215367920697 1.05555555555556
51.4420369770378 1
51.4625371620059 1.09722222222222
51.483037346974 0.923611111111111
51.5035375319421 1.125
51.5240377169102 0.9375
51.5445379018784 1.04166666666667
51.5650380868465 1.09027777777778
51.5855382718146 0.888888888888889
51.6060384567827 1.08333333333333
51.6265386417508 1.02777777777778
51.6470388267189 0.986111111111111
51.667539011687 1.04861111111111
51.6880391966552 1.11111111111111
51.7085393816233 1.04166666666667
51.7290395665914 1.02777777777778
51.7495397515595 0.944444444444444
51.7700399365276 1.125
51.7905401214957 1.11805555555556
51.8110403064638 1.125
51.831540491432 1.11111111111111
51.8520406764001 1.125
51.8725408613682 1.15972222222222
51.8930410463363 1.23611111111111
51.9135412313044 1.19444444444444
51.9340414162725 1.02083333333333
51.9545416012406 1.11805555555556
51.9750417862087 1.03472222222222
51.9955419711769 0.958333333333333
52.016042156145 0.944444444444444
52.0365423411131 0.972222222222222
52.0570425260812 0.944444444444444
52.0775427110493 0.979166666666667
52.0980428960174 0.965277777777778
52.1185430809855 1
52.1390432659537 0.923611111111111
52.1595434509218 0.902777777777778
52.1800436358899 0.770833333333333
52.200543820858 0.868055555555556
52.2210440058261 0.972222222222222
52.2415441907942 0.930555555555556
52.2620443757623 0.868055555555556
52.2825445607305 0.979166666666667
52.3030447456986 0.875
52.3235449306667 0.916666666666667
52.3440451156348 0.986111111111111
52.3645453006029 0.958333333333333
52.385045485571 1.04166666666667
52.4055456705391 0.819444444444444
52.4260458555073 0.770833333333333
52.4465460404754 0.833333333333333
52.4670462254435 0.756944444444444
52.4875464104116 0.993055555555556
52.5080465953797 0.861111111111111
52.5285467803478 0.923611111111111
52.5490469653159 0.916666666666667
52.5695471502841 0.909722222222222
52.5900473352522 0.881944444444444
52.6105475202203 0.875
52.6310477051884 0.875
52.6515478901565 0.888888888888889
52.6720480751246 1.02083333333333
52.6925482600927 0.868055555555556
52.7130484450608 0.777777777777778
52.733548630029 0.965277777777778
52.7540488149971 0.888888888888889
52.7745489999652 0.798611111111111
52.7950491849333 0.791666666666667
52.8155493699014 0.972222222222222
52.8360495548695 0.951388888888889
52.8565497398376 1.00694444444444
52.8770499248058 0.986111111111111
52.8975501097739 1.05555555555556
52.918050294742 0.9375
52.9385504797101 1
52.9590506646782 0.763888888888889
52.9795508496463 0.951388888888889
53.0000510346144 0.979166666666667
53.0205512195826 0.895833333333333
53.0410514045507 0.930555555555556
53.0615515895188 0.979166666666667
53.0820517744869 1.00694444444444
53.102551959455 0.902777777777778
53.1230521444231 1.02777777777778
53.1435523293912 1.04861111111111
53.1640525143594 0.756944444444444
53.1845526993275 0.868055555555556
53.2050528842956 1.17361111111111
53.2255530692637 0.951388888888889
53.2460532542318 0.833333333333333
53.2665534391999 0.986111111111111
53.287053624168 1.14583333333333
53.3075538091362 0.888888888888889
53.3280539941043 1
53.3485541790724 0.979166666666667
53.3690543640405 1.00694444444444
53.3895545490086 0.979166666666667
53.4100547339767 0.805555555555556
53.4305549189448 0.972222222222222
53.451055103913 0.847222222222222
53.4715552888811 0.923611111111111
53.4920554738492 0.722222222222222
53.5125556588173 1.01388888888889
53.5330558437854 0.881944444444444
53.5535560287535 0.868055555555556
53.5740562137216 0.736111111111111
53.5945563986897 0.826388888888889
53.6150565836579 1.03472222222222
53.635556768626 0.881944444444444
53.6560569535941 0.840277777777778
53.6765571385622 0.833333333333333
53.6970573235303 0.840277777777778
53.7175575084984 0.888888888888889
53.7380576934665 1.02777777777778
53.7585578784347 0.833333333333333
53.7790580634028 0.875
53.7995582483709 0.993055555555556
53.820058433339 0.791666666666667
53.8405586183071 0.875
53.8610588032752 0.916666666666667
53.8815589882433 1.00694444444444
53.9020591732115 0.986111111111111
53.9225593581796 0.930555555555556
53.9430595431477 1.06944444444444
53.9635597281158 0.819444444444444
53.9840599130839 1.02777777777778
54.004560098052 1.07638888888889
54.0250602830201 0.875
54.0455604679883 0.854166666666667
54.0660606529564 1.09027777777778
54.0865608379245 0.833333333333333
54.1070610228926 0.784722222222222
54.1275612078607 1.00694444444444
54.1480613928288 0.909722222222222
54.1685615777969 0.902777777777778
54.1890617627651 0.819444444444444
54.2095619477332 0.881944444444444
54.2300621327013 1.04861111111111
54.2505623176694 0.826388888888889
54.2710625026375 0.854166666666667
54.2915626876056 0.972222222222222
54.3120628725737 0.729166666666667
54.3325630575418 0.951388888888889
54.35306324251 0.777777777777778
54.3735634274781 0.798611111111111
54.3940636124462 0.840277777777778
54.4145637974143 0.8125
54.4350639823824 0.881944444444444
54.4555641673505 0.708333333333333
54.4760643523186 0.819444444444444
54.4965645372868 0.9375
54.5170647222549 1.00694444444444
54.537564907223 0.791666666666667
54.5580650921911 0.805555555555556
54.5785652771592 0.888888888888889
54.5990654621273 0.923611111111111
54.6195656470954 0.833333333333333
54.6400658320636 0.784722222222222
54.6605660170317 0.895833333333333
54.6810662019998 0.916666666666667
54.7015663869679 0.9375
54.722066571936 0.798611111111111
54.7425667569041 0.951388888888889
54.7630669418722 0.916666666666667
54.7835671268404 0.923611111111111
54.8040673118085 0.944444444444444
54.8245674967766 0.965277777777778
54.8450676817447 0.840277777777778
54.8655678667128 0.875
54.8860680516809 0.881944444444444
54.906568236649 0.923611111111111
54.9270684216172 0.958333333333333
54.9475686065853 0.909722222222222
54.9680687915534 0.736111111111111
54.9885689765215 0.854166666666667
55.0090691614896 0.805555555555556
